Messart,Versuchsnummer,Dauer,Sampling-Frequenz,Trigger-Art,Auto-Zero vor Messung,Movement Time Links(s),Movement Time Rechts(s)
Test,1,4.0,1000,Visueller Reiz,Ja,0.675,0.655
Time,L_Fx,L_Fy,L_Fz,L_Mx,L_My,L_Mz,R_Fx,R_Fy,R_Fz,R_Mx,R_My,R_Mz
0.0010,0.11,0.19,0.16,-0.10,0.01,0.06,-0.36,-0.12,-0.19,-0.03,-0.16,-0.07
0.0020,0.01,0.10,-0.00,-0.09,-0.03,0.02,-0.22,-0.09,-0.06,-0.02,-0.10,-0.04
0.0030,-0.07,0.02,-0.14,-0.08,-0.06,-0.02,-0.09,-0.05,0.04,-0.01,-0.05,-0.00
0.0040,-0.12,-0.04,-0.25,-0.06,-0.08,-0.04,0.00,-0.02,0.11,-0.00,-0.00,0.02
0.0050,-0.13,-0.07,-0.30,-0.04,-0.09,-0.04,0.06,0.00,0.14,0.00,0.02,0.03
0.0060,-0.11,-0.08,-0.30,-0.02,-0.09,-0.04,0.09,0.02,0.13,0.00,0.04,0.03
0.0070,-0.06,-0.06,-0.25,0.01,-0.08,-0.03,0.09,0.02,0.08,0.00,0.05,0.03
0.0080,0.01,-0.04,-0.17,0.03,-0.06,-0.01,0.07,0.02,0.03,-0.00,0.05,0.02
0.0090,0.07,-0.01,-0.06,0.06,-0.03,-0.01,0.06,0.00,-0.03,-0.00,0.04,0.01
0.0100,0.13,0.01,0.05,0.08,0.01,0.00,0.04,-0.02,-0.06,0.00,0.04,0.01
0.0110,0.18,0.03,0.16,0.09,0.05,0.00,0.03,-0.05,-0.06,0.02,0.03,0.01
0.0120,0.22,0.05,0.25,0.09,0.10,0.01,0.02,-0.07,-0.03,0.04,0.01,0.03
0.0130,0.25,0.05,0.32,0.08,0.14,0.01,0.01,-0.09,0.03,0.06,0.00,0.04
0.0140,0.27,0.05,0.35,0.05,0.17,0.02,-0.01,-0.10,0.10,0.09,-0.01,0.05
0.0150,0.28,0.05,0.32,0.01,0.17,0.03,-0.04,-0.10,0.18,0.11,-0.02,0.06
0.0160,0.29,0.04,0.24,-0.03,0.16,0.04,-0.07,-0.08,0.24,0.13,-0.03,0.06
0.0170,0.29,0.04,0.12,-0.08,0.13,0.05,-0.11,-0.06,0.28,0.14,-0.03,0.05
0.0180,0.28,0.03,-0.03,-0.12,0.08,0.05,-0.14,-0.04,0.29,0.14,-0.02,0.04
0.0190,0.27,0.03,-0.18,-0.15,0.04,0.05,-0.15,-0.02,0.27,0.13,-0.00,0.02
0.0200,0.27,0.02,-0.29,-0.16,-0.00,0.04,-0.13,-0.00,0.22,0.11,0.02,0.00
0.0210,0.26,0.02,-0.35,-0.16,-0.04,0.03,-0.10,-0.00,0.16,0.09,0.03,-0.01
0.0220,0.26,0.01,-0.35,-0.14,-0.05,0.02,-0.06,-0.01,0.10,0.07,0.03,-0.02
0.0230,0.25,-0.01,-0.30,-0.12,-0.06,0.01,-0.03,-0.02,0.05,0.06,0.02,-0.02
0.0240,0.24,-0.04,-0.20,-0.10,-0.05,0.01,-0.00,-0.02,0.01,0.07,0.01,-0.02
0.0250,0.24,-0.07,-0.09,-0.09,-0.04,0.00,-0.01,-0.02,-0.00,0.08,-0.01,-0.02
0.0260,0.23,-0.11,0.03,-0.08,-0.03,-0.00,-0.03,-0.01,-0.01,0.10,-0.03,-0.02
0.0270,0.24,-0.15,0.16,-0.08,-0.02,-0.01,-0.08,0.02,-0.01,0.12,-0.04,-0.02
0.0280,0.25,-0.18,0.29,-0.08,-0.02,-0.01,-0.14,0.06,-0.01,0.12,-0.04,-0.01
0.0290,0.27,-0.19,0.40,-0.07,-0.02,-0.01,-0.20,0.10,-0.02,0.12,-0.04,0.00
0.0300,0.30,-0.20,0.50,-0.07,-0.02,-0.01,-0.25,0.15,-0.02,0.10,-0.03,0.02
0.0310,0.33,-0.20,0.57,-0.05,-0.03,-0.01,-0.29,0.17,-0.01,0.08,-0.01,0.03
0.0320,0.35,-0.19,0.60,-0.04,-0.03,-0.00,-0.31,0.17,-0.00,0.06,-0.00,0.05
0.0330,0.36,-0.17,0.59,-0.03,-0.04,0.01,-0.32,0.14,0.01,0.04,0.01,0.06
0.0340,0.35,-0.14,0.56,-0.02,-0.04,0.01,-0.30,0.08,0.03,0.04,0.01,0.07
0.0350,0.33,-0.11,0.52,-0.01,-0.04,0.00,-0.28,-0.00,0.04,0.05,0.01,0.06
0.0360,0.30,-0.09,0.48,-0.01,-0.05,-0.02,-0.25,-0.09,0.04,0.07,0.00,0.05
0.0370,0.26,-0.06,0.43,-0.01,-0.06,-0.05,-0.23,-0.18,0.05,0.09,-0.01,0.03
0.0380,0.21,-0.05,0.38,-0.02,-0.07,-0.08,-0.21,-0.25,0.04,0.11,-0.03,0.01
0.0390,0.17,-0.04,0.31,-0.04,-0.09,-0.11,-0.20,-0.30,0.03,0.12,-0.04,-0.01
0.0400,0.13,-0.06,0.21,-0.07,-0.11,-0.13,-0.20,-0.30,0.02,0.13,-0.05,-0.03
0.0410,0.10,-0.08,0.08,-0.11,-0.13,-0.13,-0.21,-0.28,-0.00,0.12,-0.05,-0.05
0.0420,0.10,-0.10,-0.06,-0.15,-0.13,-0.12,-0.24,-0.22,-0.02,0.10,-0.05,-0.06
0.0430,0.11,-0.12,-0.17,-0.18,-0.11,-0.09,-0.27,-0.14,-0.03,0.07,-0.04,-0.05
0.0440,0.16,-0.13,-0.24,-0.20,-0.08,-0.05,-0.29,-0.05,-0.03,0.04,-0.03,-0.04
0.0450,0.22,-0.12,-0.24,-0.20,-0.03,-0.01,-0.30,0.03,-0.02,0.01,-0.02,-0.02
0.0460,0.30,-0.10,-0.17,-0.17,0.03,0.03,-0.30,0.09,0.01,-0.01,-0.01,-0.00
0.0470,0.38,-0.07,-0.05,-0.12,0.10,0.07,-0.27,0.13,0.04,-0.03,0.00,0.01
0.0480,0.45,-0.03,0.11,-0.06,0.16,0.09,-0.24,0.13,0.07,-0.03,0.01,0.03
0.0490,0.49,-0.00,0.26,0.00,0.20,0.09,-0.19,0.11,0.10,-0.02,0.02,0.04
0.0500,0.50,0.02,0.38,0.05,0.23,0.08,-0.14,0.08,0.13,0.00,0.02,0.04
0.0510,0.48,0.03,0.42,0.07,0.23,0.06,-0.09,0.05,0.14,0.03,0.03,0.04
0.0520,0.45,0.02,0.40,0.07,0.21,0.02,-0.05,0.03,0.14,0.05,0.03,0.04
0.0530,0.41,0.01,0.31,0.05,0.17,-0.01,-0.03,0.02,0.14,0.07,0.03,0.03
0.0540,0.37,-0.02,0.18,0.00,0.11,-0.05,-0.02,0.02,0.14,0.07,0.02,0.03
0.0550,0.35,-0.05,0.04,-0.04,0.04,-0.07,-0.02,0.03,0.13,0.07,0.01,0.03
0.0560,0.33,-0.08,-0.10,-0.09,-0.02,-0.09,-0.03,0.03,0.14,0.05,0.01,0.03
0.0570,0.32,-0.10,-0.21,-0.12,-0.07,-0.10,-0.03,0.02,0.13,0.02,0.01,0.03
0.0580,0.33,-0.10,-0.28,-0.13,-0.09,-0.09,-0.03,-0.01,0.12,0.00,0.01,0.03
0.0590,0.34,-0.07,-0.32,-0.13,-0.09,-0.07,-0.03,-0.04,0.10,-0.00,0.01,0.03
0.0600,0.35,-0.03,-0.32,-0.11,-0.05,-0.05,-0.02,-0.08,0.07,0.00,0.02,0.03
0.0610,0.37,0.03,-0.29,-0.10,-0.00,-0.02,-0.03,-0.12,0.03,0.03,0.03,0.03
0.0620,0.40,0.09,-0.25,-0.08,0.05,0.00,-0.03,-0.15,-0.02,0.06,0.03,0.02
0.0630,0.42,0.13,-0.20,-0.08,0.11,0.03,-0.05,-0.16,-0.06,0.10,0.02,0.01
0.0640,0.42,0.14,-0.15,-0.08,0.14,0.05,-0.06,-0.15,-0.09,0.14,0.01,0.01
0.0650,0.41,0.13,-0.09,-0.08,0.15,0.06,-0.08,-0.12,-0.11,0.16,0.00,0.00
0.0660,0.39,0.08,-0.03,-0.09,0.14,0.07,-0.09,-0.08,-0.10,0.17,-0.00,0.00
0.0670,0.35,0.03,0.04,-0.10,0.10,0.07,-0.08,-0.03,-0.09,0.16,-0.01,0.00
0.0680,0.31,-0.03,0.10,-0.11,0.05,0.05,-0.07,0.01,-0.07,0.14,-0.01,-0.00
0.0690,0.29,-0.08,0.14,-0.11,-0.01,0.03,-0.04,0.04,-0.05,0.12,-0.01,-0.00
0.0700,0.30,-0.11,0.17,-0.11,-0.07,-0.00,-0.00,0.06,-0.04,0.09,-0.00,-0.00
0.0710,0.33,-0.11,0.18,-0.11,-0.11,-0.04,0.03,0.07,-0.06,0.07,0.01,-0.00
0.0720,0.39,-0.09,0.17,-0.11,-0.14,-0.07,0.06,0.07,-0.10,0.06,0.02,0.00
0.0730,0.47,-0.05,0.14,-0.10,-0.14,-0.10,0.08,0.06,-0.15,0.05,0.03,0.00
0.0740,0.53,-0.01,0.09,-0.09,-0.13,-0.12,0.08,0.06,-0.20,0.06,0.04,0.01
0.0750,0.57,0.03,0.03,-0.07,-0.11,-0.13,0.06,0.06,-0.23,0.06,0.05,0.02
0.0760,0.58,0.04,-0.05,-0.05,-0.08,-0.13,0.02,0.07,-0.24,0.07,0.05,0.03
0.0770,0.54,0.03,-0.12,-0.03,-0.06,-0.12,-0.03,0.08,-0.22,0.08,0.04,0.04
0.0780,0.48,-0.01,-0.18,-0.00,-0.05,-0.11,-0.09,0.07,-0.18,0.09,0.03,0.04
0.0790,0.40,-0.06,-0.19,0.02,-0.05,-0.09,-0.15,0.06,-0.13,0.10,0.02,0.05
0.0800,0.32,-0.10,-0.15,0.05,-0.06,-0.08,-0.20,0.04,-0.08,0.11,0.00,0.05
0.0810,0.25,-0.12,-0.07,0.07,-0.07,-0.06,-0.24,0.02,-0.03,0.12,-0.01,0.05
0.0820,0.21,-0.11,0.02,0.07,-0.07,-0.05,-0.24,-0.00,-0.00,0.14,-0.02,0.04
0.0830,0.20,-0.09,0.10,0.06,-0.07,-0.03,-0.21,-0.01,0.00,0.15,-0.03,0.03
0.0840,0.20,-0.05,0.13,0.03,-0.06,-0.02,-0.16,-0.01,-0.01,0.17,-0.03,0.02
0.0850,0.22,-0.00,0.10,-0.02,-0.05,-0.01,-0.08,0.01,-0.04,0.17,-0.03,0.01
0.0860,0.25,0.03,0.02,-0.09,-0.04,0.00,-0.01,0.04,-0.07,0.17,-0.02,0.01
0.0870,0.30,0.04,-0.10,-0.14,-0.04,0.01,0.05,0.07,-0.11,0.15,-0.02,0.00
0.0880,0.35,0.03,-0.21,-0.19,-0.03,0.00,0.09,0.11,-0.14,0.13,-0.02,0.00
0.0890,0.41,0.01,-0.27,-0.20,-0.02,-0.00,0.10,0.14,-0.17,0.11,-0.03,0.01
0.0900,0.46,-0.01,-0.27,-0.17,-0.00,-0.01,0.08,0.15,-0.19,0.09,-0.04,0.02
0.0910,0.49,-0.03,-0.20,-0.12,0.02,-0.02,0.03,0.14,-0.19,0.08,-0.06,0.03
0.0920,0.49,-0.03,-0.07,-0.05,0.06,-0.03,-0.04,0.13,-0.18,0.08,-0.09,0.04
0.0930,0.46,-0.02,0.09,0.03,0.09,-0.05,-0.13,0.11,-0.16,0.08,-0.12,0.04
0.0940,0.40,0.01,0.25,0.09,0.11,-0.06,-0.21,0.08,-0.13,0.10,-0.14,0.05
0.0950,0.32,0.05,0.39,0.12,0.13,-0.07,-0.29,0.06,-0.10,0.11,-0.15,0.04
0.0960,0.25,0.10,0.49,0.12,0.12,-0.09,-0.34,0.04,-0.08,0.12,-0.15,0.04
0.0970,0.21,0.13,0.52,0.09,0.10,-0.12,-0.36,0.01,-0.07,0.13,-0.14,0.03
0.0980,0.19,0.15,0.49,0.04,0.07,-0.14,-0.35,-0.01,-0.07,0.13,-0.12,0.02
0.0990,0.20,0.14,0.41,-0.02,0.03,-0.17,-0.31,-0.03,-0.08,0.12,-0.10,0.02
0.1000,0.24,0.12,0.28,-0.08,-0.01,-0.18,-0.25,-0.05,-0.08,0.12,-0.08,0.01
0.1010,0.29,0.08,0.13,-0.13,-0.04,-0.17,-0.18,-0.06,-0.08,0.10,-0.06,0.00
0.1020,0.34,0.02,-0.02,-0.17,-0.07,-0.15,-0.12,-0.07,-0.07,0.09,-0.05,0.00
0.1030,0.38,-0.03,-0.13,-0.20,-0.08,-0.12,-0.08,-0.08,-0.05,0.08,-0.04,0.00
0.1040,0.41,-0.08,-0.21,-0.22,-0.08,-0.08,-0.06,-0.09,-0.01,0.07,-0.03,0.00
0.1050,0.44,-0.13,-0.25,-0.22,-0.08,-0.05,-0.05,-0.09,0.02,0.07,-0.02,0.00
0.1060,0.45,-0.16,-0.25,-0.21,-0.08,-0.02,-0.05,-0.09,0.06,0.07,-0.00,0.00
0.1070,0.45,-0.17,-0.21,-0.18,-0.07,-0.01,-0.06,-0.08,0.10,0.08,0.01,-0.00
0.1080,0.45,-0.17,-0.14,-0.15,-0.06,-0.01,-0.06,-0.07,0.12,0.10,0.03,-0.01
0.1090,0.44,-0.16,-0.05,-0.10,-0.04,-0.01,-0.06,-0.07,0.13,0.12,0.04,-0.01
0.1100,0.42,-0.13,0.05,-0.06,-0.02,-0.02,-0.04,-0.07,0.13,0.13,0.04,-0.02
0.1110,0.39,-0.11,0.15,-0.03,0.01,-0.02,-0.01,-0.07,0.11,0.14,0.03,-0.03
0.1120,0.35,-0.08,0.24,-0.02,0.02,-0.01,0.02,-0.08,0.09,0.14,0.02,-0.03
0.1130,0.31,-0.07,0.31,-0.02,0.03,0.00,0.05,-0.08,0.06,0.14,0.00,-0.04
0.1140,0.27,-0.06,0.34,-0.05,0.02,0.01,0.08,-0.08,0.02,0.12,-0.01,-0.04
0.1150,0.23,-0.07,0.32,-0.10,-0.00,0.02,0.09,-0.07,-0.01,0.10,-0.02,-0.04
0.1160,0.20,-0.08,0.27,-0.15,-0.04,0.02,0.08,-0.05,-0.05,0.08,-0.02,-0.03
0.1170,0.17,-0.10,0.17,-0.19,-0.08,0.01,0.04,-0.02,-0.09,0.07,-0.01,-0.02
0.1180,0.15,-0.11,0.06,-0.22,-0.13,-0.01,-0.04,0.00,-0.13,0.07,0.01,-0.00
0.1190,0.13,-0.11,-0.05,-0.23,-0.16,-0.03,-0.15,0.03,-0.16,0.07,0.03,0.02
0.1200,0.11,-0.11,-0.15,-0.22,-0.18,-0.05,-0.29,0.04,-0.18,0.09,0.04,0.03
0.1210,0.09,-0.10,-0.22,-0.18,-0.18,-0.07,-0.43,0.05,-0.19,0.10,0.05,0.04
0.1220,0.08,-0.09,-0.24,-0.14,-0.16,-0.08,-0.56,0.05,-0.18,0.10,0.04,0.04
0.1230,0.09,-0.08,-0.22,-0.08,-0.14,-0.08,-0.65,0.05,-0.14,0.11,0.03,0.05
0.1240,0.13,-0.07,-0.16,-0.04,-0.11,-0.08,-0.69,0.04,-0.08,0.11,0.00,0.05
0.1250,0.18,-0.07,-0.09,0.00,-0.09,-0.08,-0.68,0.04,-0.02,0.12,-0.03,0.04
0.1260,0.24,-0.07,-0.01,0.03,-0.07,-0.09,-0.63,0.03,0.05,0.13,-0.05,0.04
0.1270,0.30,-0.06,0.04,0.04,-0.05,-0.09,-0.57,0.02,0.11,0.15,-0.08,0.04
0.1280,0.34,-0.04,0.04,0.03,-0.03,-0.10,-0.50,-0.01,0.15,0.17,-0.09,0.03
0.1290,0.35,-0.02,0.01,0.02,-0.01,-0.11,-0.44,-0.04,0.16,0.19,-0.10,0.03
0.1300,0.34,0.00,-0.04,0.01,0.01,-0.11,-0.38,-0.08,0.15,0.21,-0.09,0.03
0.1310,0.29,0.03,-0.09,0.00,0.05,-0.10,-0.33,-0.12,0.12,0.21,-0.07,0.03
0.1320,0.23,0.06,-0.12,0.00,0.08,-0.08,-0.26,-0.16,0.07,0.20,-0.05,0.03
0.1330,0.17,0.07,-0.10,0.01,0.11,-0.04,-0.17,-0.19,0.01,0.18,-0.02,0.03
0.1340,0.12,0.08,-0.04,0.02,0.12,-0.01,-0.09,-0.20,-0.05,0.15,0.01,0.04
0.1350,0.09,0.08,0.07,0.03,0.12,0.03,-0.01,-0.20,-0.10,0.12,0.04,0.04
0.1360,0.08,0.08,0.21,0.04,0.10,0.04,0.05,-0.18,-0.14,0.09,0.05,0.05
0.1370,0.11,0.08,0.35,0.05,0.07,0.04,0.06,-0.15,-0.16,0.08,0.06,0.05
0.1380,0.17,0.09,0.46,0.06,0.03,0.02,0.04,-0.10,-0.18,0.08,0.06,0.05
0.1390,0.24,0.10,0.53,0.07,-0.02,-0.02,-0.02,-0.04,-0.18,0.09,0.05,0.04
0.1400,0.32,0.12,0.54,0.08,-0.05,-0.06,-0.12,0.02,-0.17,0.10,0.03,0.04
0.1410,0.39,0.13,0.49,0.08,-0.08,-0.10,-0.22,0.09,-0.15,0.11,0.00,0.04
0.1420,0.45,0.13,0.40,0.09,-0.08,-0.12,-0.33,0.14,-0.12,0.11,-0.02,0.04
0.1430,0.48,0.11,0.28,0.09,-0.06,-0.12,-0.42,0.17,-0.09,0.10,-0.04,0.04
0.1440,0.48,0.07,0.17,0.08,-0.03,-0.10,-0.48,0.18,-0.05,0.09,-0.06,0.04
0.1450,0.46,0.03,0.07,0.06,0.01,-0.07,-0.50,0.16,-0.02,0.07,-0.06,0.04
0.1460,0.42,-0.03,0.01,0.04,0.05,-0.04,-0.47,0.12,-0.01,0.06,-0.06,0.03
0.1470,0.36,-0.08,-0.02,-0.00,0.08,-0.01,-0.41,0.07,-0.02,0.06,-0.06,0.02
0.1480,0.30,-0.12,-0.03,-0.05,0.10,0.00,-0.33,0.01,-0.06,0.07,-0.05,0.01
0.1490,0.25,-0.14,-0.03,-0.09,0.10,0.01,-0.24,-0.04,-0.12,0.09,-0.04,-0.01
0.1500,0.21,-0.13,-0.03,-0.12,0.09,0.01,-0.16,-0.07,-0.19,0.11,-0.03,-0.03
0.1510,0.18,-0.11,-0.04,-0.14,0.08,0.01,-0.10,-0.09,-0.26,0.13,-0.02,-0.05
0.1520,0.16,-0.06,-0.05,-0.14,0.06,0.02,-0.06,-0.08,-0.32,0.15,-0.01,-0.06
0.1530,0.16,-0.00,-0.06,-0.12,0.06,0.03,-0.04,-0.05,-0.34,0.16,-0.00,-0.06
0.1540,0.16,0.05,-0.07,-0.09,0.05,0.05,-0.03,-0.01,-0.32,0.17,0.01,-0.06
0.1550,0.17,0.09,-0.08,-0.07,0.04,0.07,-0.02,0.03,-0.26,0.17,0.01,-0.06
0.1560,0.20,0.11,-0.09,-0.05,0.02,0.07,-0.02,0.06,-0.17,0.18,0.02,-0.05
0.1570,0.22,0.10,-0.11,-0.05,0.01,0.07,-0.01,0.08,-0.07,0.19,0.03,-0.04
0.1580,0.26,0.05,-0.12,-0.06,-0.02,0.06,0.00,0.08,-0.00,0.19,0.03,-0.02
0.1590,0.29,-0.01,-0.12,-0.08,-0.03,0.03,0.02,0.06,0.03,0.19,0.04,-0.00
0.1600,0.31,-0.08,-0.11,-0.10,-0.05,0.01,0.03,0.04,0.01,0.19,0.04,0.02
0.1610,0.32,-0.14,-0.08,-0.11,-0.05,-0.02,0.04,0.01,-0.06,0.18,0.03,0.04
0.1620,0.31,-0.18,-0.03,-0.11,-0.04,-0.04,0.04,-0.01,-0.14,0.16,0.02,0.06
0.1630,0.29,-0.18,0.03,-0.09,-0.03,-0.06,0.02,-0.02,-0.22,0.14,0.02,0.08
0.1640,0.27,-0.16,0.10,-0.07,-0.02,-0.07,-0.00,-0.02,-0.26,0.11,0.01,0.10
0.1650,0.24,-0.13,0.17,-0.04,-0.02,-0.08,-0.04,-0.01,-0.24,0.08,0.01,0.11
0.1660,0.22,-0.09,0.22,-0.02,-0.02,-0.08,-0.08,0.01,-0.18,0.06,0.02,0.10
0.1670,0.20,-0.07,0.25,-0.02,-0.04,-0.07,-0.11,0.02,-0.09,0.04,0.03,0.09
0.1680,0.20,-0.05,0.26,-0.02,-0.05,-0.06,-0.13,0.02,0.01,0.03,0.05,0.06
0.1690,0.20,-0.05,0.25,-0.03,-0.06,-0.05,-0.14,0.02,0.10,0.03,0.06,0.04
0.1700,0.21,-0.06,0.21,-0.03,-0.05,-0.03,-0.14,0.03,0.18,0.03,0.07,0.01
0.1710,0.22,-0.08,0.16,-0.04,-0.03,-0.01,-0.14,0.05,0.23,0.04,0.07,0.00
0.1720,0.22,-0.08,0.10,-0.04,0.01,0.01,-0.14,0.08,0.25,0.05,0.07,-0.00
0.1730,0.23,-0.09,0.06,-0.03,0.06,0.02,-0.14,0.11,0.24,0.06,0.06,0.01
0.1740,0.24,-0.08,0.04,-0.02,0.10,0.03,-0.16,0.15,0.21,0.08,0.05,0.02
0.1750,0.24,-0.07,0.04,-0.01,0.13,0.03,-0.18,0.17,0.17,0.09,0.03,0.04
0.1760,0.25,-0.06,0.07,0.01,0.14,0.03,-0.21,0.17,0.11,0.10,0.02,0.06
0.1770,0.25,-0.06,0.11,0.01,0.13,0.01,-0.22,0.15,0.05,0.11,0.00,0.08
0.1780,0.24,-0.06,0.14,0.02,0.10,0.00,-0.23,0.11,-0.01,0.12,-0.01,0.08
0.1790,0.22,-0.06,0.15,0.01,0.06,-0.01,-0.22,0.07,-0.05,0.13,-0.03,0.08
0.1800,0.19,-0.07,0.13,0.01,0.02,-0.01,-0.20,0.03,-0.06,0.15,-0.04,0.07
0.1810,0.15,-0.07,0.08,-0.00,-0.00,-0.01,-0.17,0.01,-0.03,0.15,-0.05,0.06
0.1820,0.09,-0.07,0.04,-0.01,0.00,0.00,-0.14,0.01,0.02,0.14,-0.05,0.05
0.1830,0.05,-0.05,0.01,-0.02,0.04,0.02,-0.13,0.02,0.10,0.13,-0.04,0.03
0.1840,0.01,-0.02,0.04,-0.02,0.10,0.05,-0.14,0.04,0.17,0.11,-0.03,0.02
0.1850,-0.01,0.01,0.13,-0.01,0.19,0.07,-0.17,0.05,0.23,0.09,-0.02,0.01
0.1860,-0.00,0.06,0.27,0.00,0.29,0.10,-0.20,0.06,0.25,0.08,-0.01,-0.00
0.1870,0.03,0.10,0.42,0.03,0.37,0.13,-0.24,0.05,0.23,0.08,0.00,-0.01
0.1880,0.08,0.14,0.54,0.05,0.42,0.14,-0.25,0.04,0.18,0.09,0.01,-0.01
0.1890,0.14,0.16,0.61,0.07,0.43,0.14,-0.25,0.03,0.09,0.12,0.01,-0.02
0.1900,0.21,0.16,0.60,0.09,0.39,0.13,-0.21,0.01,-0.02,0.15,0.01,-0.02
0.1910,0.27,0.15,0.51,0.09,0.30,0.10,-0.16,0.00,-0.11,0.17,0.00,-0.02
0.1920,0.32,0.12,0.38,0.08,0.19,0.06,-0.09,-0.00,-0.18,0.19,-0.01,-0.02
0.1930,0.36,0.08,0.22,0.07,0.07,0.02,-0.04,0.00,-0.22,0.19,-0.01,-0.01
0.1940,0.38,0.04,0.08,0.05,-0.03,-0.01,0.00,0.01,-0.21,0.18,-0.01,0.00
0.1950,0.39,0.02,-0.02,0.03,-0.10,-0.04,0.02,0.02,-0.16,0.16,-0.01,0.02
0.1960,0.39,-0.00,-0.08,0.02,-0.14,-0.06,0.01,0.03,-0.10,0.13,0.00,0.03
0.1970,0.38,-0.02,-0.11,0.00,-0.15,-0.06,-0.01,0.04,-0.04,0.09,0.02,0.04
0.1980,0.37,-0.03,-0.13,-0.02,-0.14,-0.05,-0.03,0.06,-0.00,0.06,0.03,0.04
0.1990,0.35,-0.04,-0.16,-0.05,-0.12,-0.04,-0.05,0.08,0.01,0.03,0.05,0.03
0.2000,0.34,-0.05,-0.21,-0.08,-0.10,-0.02,-0.06,0.10,-0.00,0.01,0.05,0.01
0.2010,0.33,-0.07,-0.29,-0.12,-0.09,-0.01,-0.08,0.12,-0.03,-0.01,0.05,-0.01
0.2020,0.32,-0.09,-0.37,-0.15,-0.09,-0.01,-0.10,0.12,-0.07,-0.01,0.03,-0.03
0.2030,0.32,-0.11,-0.43,-0.17,-0.09,-0.01,-0.13,0.11,-0.10,0.00,0.01,-0.05
0.2040,0.32,-0.13,-0.45,-0.18,-0.10,-0.01,-0.17,0.10,-0.11,0.02,-0.02,-0.05
0.2050,0.31,-0.15,-0.42,-0.17,-0.10,-0.02,-0.21,0.08,-0.11,0.05,-0.04,-0.04
0.2060,0.30,-0.16,-0.33,-0.14,-0.09,-0.02,-0.25,0.06,-0.09,0.08,-0.06,-0.03
0.2070,0.28,-0.17,-0.20,-0.11,-0.08,-0.03,-0.27,0.04,-0.06,0.10,-0.07,-0.01
0.2080,0.26,-0.18,-0.06,-0.08,-0.07,-0.03,-0.27,0.03,-0.04,0.11,-0.07,0.01
0.2090,0.25,-0.18,0.07,-0.06,-0.05,-0.03,-0.24,0.02,-0.01,0.12,-0.07,0.03
0.2100,0.25,-0.18,0.15,-0.05,-0.03,-0.03,-0.19,0.02,0.00,0.12,-0.06,0.05
0.2110,0.27,-0.17,0.18,-0.05,-0.01,-0.03,-0.12,0.02,0.01,0.11,-0.06,0.06
0.2120,0.30,-0.16,0.15,-0.05,0.01,-0.03,-0.06,0.02,-0.00,0.10,-0.05,0.07
0.2130,0.33,-0.15,0.09,-0.07,0.02,-0.03,-0.01,0.02,-0.02,0.09,-0.06,0.07
0.2140,0.36,-0.13,0.01,-0.08,0.03,-0.03,0.02,0.04,-0.05,0.08,-0.06,0.06
0.2150,0.39,-0.11,-0.07,-0.10,0.03,-0.04,0.02,0.06,-0.09,0.06,-0.07,0.05
0.2160,0.40,-0.08,-0.15,-0.11,0.01,-0.06,-0.01,0.10,-0.12,0.04,-0.08,0.04
0.2170,0.40,-0.05,-0.20,-0.13,-0.02,-0.08,-0.06,0.14,-0.15,0.02,-0.07,0.04
0.2180,0.40,-0.03,-0.24,-0.14,-0.05,-0.11,-0.13,0.18,-0.17,-0.00,-0.07,0.03
0.2190,0.40,-0.02,-0.24,-0.15,-0.08,-0.12,-0.20,0.20,-0.18,-0.01,-0.05,0.03
0.2200,0.41,-0.02,-0.22,-0.16,-0.10,-0.13,-0.27,0.21,-0.18,-0.01,-0.03,0.02
0.2210,0.43,-0.02,-0.17,-0.18,-0.11,-0.13,-0.33,0.19,-0.17,-0.00,-0.02,0.03
0.2220,0.45,-0.03,-0.10,-0.19,-0.10,-0.12,-0.37,0.16,-0.15,0.02,-0.01,0.03
0.2230,0.45,-0.05,-0.03,-0.20,-0.08,-0.10,-0.39,0.11,-0.14,0.04,-0.01,0.03
0.2240,0.44,-0.06,0.05,-0.20,-0.05,-0.08,-0.39,0.06,-0.12,0.07,-0.02,0.03
0.2250,0.40,-0.08,0.11,-0.21,-0.02,-0.06,-0.38,0.02,-0.11,0.09,-0.04,0.03
0.2260,0.33,-0.09,0.15,-0.20,-0.00,-0.04,-0.35,-0.02,-0.11,0.10,-0.05,0.03
0.2270,0.24,-0.10,0.15,-0.19,0.00,-0.03,-0.30,-0.04,-0.11,0.11,-0.05,0.02
0.2280,0.14,-0.10,0.12,-0.18,-0.01,-0.03,-0.24,-0.06,-0.11,0.10,-0.05,0.01
0.2290,0.06,-0.10,0.07,-0.16,-0.03,-0.03,-0.16,-0.07,-0.11,0.10,-0.04,0.00
0.2300,0.02,-0.10,0.03,-0.13,-0.04,-0.02,-0.08,-0.08,-0.11,0.09,-0.02,0.00
0.2310,0.03,-0.09,0.02,-0.10,-0.05,-0.02,0.00,-0.09,-0.10,0.09,-0.00,0.01
0.2320,0.07,-0.09,0.05,-0.07,-0.04,-0.01,0.07,-0.11,-0.10,0.09,0.01,0.02
0.2330,0.15,-0.09,0.10,-0.05,-0.04,-0.01,0.11,-0.12,-0.09,0.09,0.02,0.04
0.2340,0.22,-0.10,0.16,-0.05,-0.04,-0.01,0.13,-0.12,-0.07,0.10,0.02,0.06
0.2350,0.28,-0.12,0.21,-0.06,-0.06,-0.02,0.12,-0.11,-0.05,0.10,0.02,0.08
0.2360,0.30,-0.13,0.24,-0.08,-0.09,-0.04,0.10,-0.10,-0.03,0.11,0.01,0.10
0.2370,0.28,-0.14,0.24,-0.10,-0.13,-0.07,0.06,-0.07,-0.00,0.11,0.00,0.10
0.2380,0.23,-0.14,0.20,-0.12,-0.16,-0.10,0.02,-0.03,0.02,0.11,-0.00,0.10
0.2390,0.16,-0.14,0.14,-0.13,-0.19,-0.14,-0.01,0.00,0.02,0.09,-0.01,0.08
0.2400,0.10,-0.12,0.04,-0.13,-0.19,-0.16,-0.04,0.03,0.02,0.08,-0.00,0.06
0.2410,0.06,-0.11,-0.07,-0.11,-0.18,-0.18,-0.06,0.05,-0.01,0.05,0.00,0.04
0.2420,0.04,-0.11,-0.20,-0.10,-0.16,-0.17,-0.07,0.07,-0.05,0.03,0.01,0.02
0.2430,0.05,-0.11,-0.32,-0.09,-0.13,-0.16,-0.06,0.07,-0.09,0.01,0.02,0.00
0.2440,0.07,-0.13,-0.42,-0.10,-0.10,-0.13,-0.04,0.07,-0.13,-0.00,0.03,-0.01
0.2450,0.09,-0.16,-0.49,-0.12,-0.08,-0.11,-0.00,0.06,-0.14,-0.01,0.04,-0.01
0.2460,0.11,-0.20,-0.51,-0.15,-0.08,-0.09,0.04,0.05,-0.12,-0.01,0.05,-0.00
0.2470,0.11,-0.23,-0.49,-0.18,-0.09,-0.09,0.08,0.05,-0.07,-0.00,0.06,0.01
0.2480,0.10,-0.24,-0.43,-0.20,-0.12,-0.10,0.10,0.05,0.01,0.01,0.07,0.03
0.2490,0.10,-0.25,-0.34,-0.22,-0.16,-0.12,0.11,0.06,0.11,0.02,0.07,0.04
0.2500,0.10,-0.24,-0.24,-0.23,-0.20,-0.14,0.09,0.08,0.20,0.03,0.07,0.06
0.2510,0.12,-0.21,-0.12,-0.22,-0.23,-0.16,0.05,0.09,0.28,0.04,0.07,0.06
0.2520,0.14,-0.18,-0.00,-0.21,-0.25,-0.17,0.01,0.11,0.33,0.05,0.06,0.05
0.2530,0.17,-0.14,0.12,-0.20,-0.25,-0.17,-0.03,0.12,0.34,0.06,0.05,0.04
0.2540,0.20,-0.11,0.22,-0.18,-0.23,-0.15,-0.05,0.12,0.31,0.06,0.04,0.02
0.2550,0.22,-0.08,0.29,-0.16,-0.19,-0.11,-0.07,0.11,0.26,0.06,0.02,0.00
0.2560,0.24,-0.07,0.33,-0.14,-0.14,-0.07,-0.08,0.09,0.18,0.07,0.01,-0.01
0.2570,0.25,-0.06,0.34,-0.12,-0.09,-0.03,-0.08,0.06,0.09,0.07,0.00,-0.01
0.2580,0.26,-0.06,0.32,-0.08,-0.04,0.01,-0.09,0.02,-0.00,0.07,-0.00,-0.01
0.2590,0.26,-0.06,0.29,-0.04,0.00,0.04,-0.11,-0.02,-0.09,0.06,-0.01,0.01
0.2600,0.25,-0.05,0.26,0.01,0.04,0.05,-0.13,-0.06,-0.16,0.07,-0.01,0.02
0.2610,0.24,-0.04,0.23,0.07,0.07,0.05,-0.17,-0.09,-0.20,0.07,-0.02,0.03
0.2620,0.23,-0.02,0.20,0.13,0.08,0.04,-0.22,-0.11,-0.21,0.07,-0.02,0.04
0.2630,0.22,0.01,0.18,0.18,0.09,0.01,-0.28,-0.12,-0.19,0.07,-0.03,0.04
0.2640,0.22,0.04,0.16,0.21,0.09,-0.03,-0.33,-0.11,-0.15,0.06,-0.05,0.04
0.2650,0.25,0.07,0.14,0.22,0.07,-0.07,-0.36,-0.10,-0.09,0.05,-0.06,0.02
0.2660,0.29,0.08,0.13,0.20,0.06,-0.11,-0.38,-0.08,-0.03,0.05,-0.07,0.01
0.2670,0.35,0.08,0.14,0.16,0.03,-0.14,-0.37,-0.06,0.01,0.04,-0.07,-0.01
0.2680,0.42,0.06,0.16,0.10,0.01,-0.17,-0.32,-0.04,0.05,0.04,-0.07,-0.02
0.2690,0.48,0.03,0.19,0.03,-0.02,-0.19,-0.26,-0.04,0.06,0.05,-0.06,-0.03
0.2700,0.53,-0.01,0.24,-0.04,-0.04,-0.20,-0.19,-0.04,0.06,0.07,-0.04,-0.02
0.2710,0.55,-0.06,0.29,-0.10,-0.06,-0.19,-0.12,-0.05,0.04,0.09,-0.02,-0.01
